"f (Hz)"	"G (S)"	"B (S)"
1.100e+05	1.47e-05	3.57e-04
1.101e+05	1.48e-05	3.57e-04
1.102e+05	1.49e-05	3.58e-04
1.103e+05	1.51e-05	3.59e-04
1.104e+05	1.52e-05	3.60e-04
1.105e+05	1.53e-05	3.60e-04
1.106e+05	1.55e-05	3.62e-04
1.107e+05	1.56e-05	3.63e-04
1.108e+05	1.57e-05	3.65e-04
1.109e+05	1.58e-05	3.67e-04
1.110e+05	1.59e-05	3.68e-04
1.111e+05	1.59e-05	3.70e-04
1.112e+05	1.59e-05	3.71e-04
1.113e+05	1.59e-05	3.73e-04
1.114e+05	1.59e-05	3.74e-04
1.115e+05	1.60e-05	3.75e-04
1.116e+05	1.61e-05	3.76e-04
1.117e+05	1.63e-05	3.76e-04
1.118e+05	1.65e-05	3.76e-04
1.119e+05	1.67e-05	3.76e-04
1.120e+05	1.68e-05	3.76e-04
1.121e+05	1.70e-05	3.78e-04
1.122e+05	1.71e-05	3.79e-04
1.123e+05	1.73e-05	3.81e-04
1.124e+05	1.74e-05	3.82e-04
1.125e+05	1.76e-05	3.84e-04
1.126e+05	1.78e-05	3.84e-04
1.127e+05	1.79e-05	3.84e-04
1.128e+05	1.80e-05	3.84e-04
1.129e+05	1.80e-05	3.84e-04
1.130e+05	1.80e-05	3.84e-04
1.131e+05	1.80e-05	3.86e-04
1.132e+05	1.80e-05	3.88e-04
1.133e+05	1.81e-05	3.89e-04
1.134e+05	1.82e-05	3.91e-04
1.135e+05	1.84e-05	3.93e-04
1.136e+05	1.85e-05	3.94e-04
1.137e+05	1.87e-05	3.96e-04
1.138e+05	1.88e-05	3.97e-04
1.139e+05	1.90e-05	3.99e-04
1.140e+05	1.92e-05	4.00e-04
1.141e+05	1.93e-05	4.01e-04
1.142e+05	1.97e-05	4.02e-04
1.143e+05	2.01e-05	4.03e-04
1.144e+05	2.05e-05	4.04e-04
1.145e+05	2.09e-05	4.05e-04
1.146e+05	2.13e-05	4.08e-04
1.147e+05	2.17e-05	4.10e-04
1.148e+05	2.21e-05	4.12e-04
1.149e+05	2.25e-05	4.15e-04
1.150e+05	2.29e-05	4.17e-04
1.151e+05	2.33e-05	4.18e-04
1.152e+05	2.36e-05	4.20e-04
1.153e+05	2.40e-05	4.22e-04
1.154e+05	2.44e-05	4.23e-04
1.155e+05	2.50e-05	4.24e-04
1.156e+05	2.58e-05	4.24e-04
1.157e+05	2.66e-05	4.24e-04
1.158e+05	2.74e-05	4.24e-04
1.159e+05	2.79e-05	4.24e-04
1.160e+05	2.84e-05	4.25e-04
1.161e+05	2.89e-05	4.26e-04
1.162e+05	2.94e-05	4.26e-04
1.163e+05	2.97e-05	4.27e-04
1.164e+05	2.94e-05	4.28e-04
1.165e+05	2.92e-05	4.30e-04
1.166e+05	2.89e-05	4.31e-04
1.167e+05	2.86e-05	4.33e-04
1.168e+05	2.84e-05	4.35e-04
1.169e+05	2.81e-05	4.36e-04
1.170e+05	2.79e-05	4.39e-04
1.171e+05	2.76e-05	4.41e-04
1.172e+05	2.75e-05	4.43e-04
1.173e+05	2.75e-05	4.46e-04
1.174e+05	2.75e-05	4.48e-04
1.175e+05	2.75e-05	4.49e-04
1.176e+05	2.75e-05	4.49e-04
1.177e+05	2.76e-05	4.50e-04
1.178e+05	2.79e-05	4.51e-04
1.179e+05	2.81e-05	4.52e-04
1.180e+05	2.84e-05	4.55e-04
1.181e+05	2.86e-05	4.59e-04
1.182e+05	2.88e-05	4.62e-04
1.183e+05	2.90e-05	4.66e-04
1.184e+05	2.92e-05	4.68e-04
1.185e+05	2.94e-05	4.70e-04
1.186e+05	2.98e-05	4.71e-04
1.187e+05	3.04e-05	4.73e-04
1.188e+05	3.09e-05	4.74e-04
1.189e+05	3.15e-05	4.77e-04
1.190e+05	3.21e-05	4.81e-04
1.191e+05	3.26e-05	4.85e-04
1.192e+05	3.32e-05	4.89e-04
1.193e+05	3.38e-05	4.93e-04
1.194e+05	3.43e-05	4.95e-04
1.195e+05	3.48e-05	4.95e-04
1.196e+05	3.51e-05	4.95e-04
1.197e+05	3.53e-05	4.95e-04
1.198e+05	3.56e-05	4.95e-04
1.199e+05	3.58e-05	4.99e-04
1.200e+05	3.65e-05	5.03e-04
1.201e+05	3.73e-05	5.08e-04
1.202e+05	3.81e-05	5.12e-04
1.203e+05	3.89e-05	5.16e-04
1.204e+05	3.96e-05	5.21e-04
1.205e+05	4.02e-05	5.26e-04
1.206e+05	4.09e-05	5.30e-04
1.207e+05	4.16e-05	5.35e-04
1.208e+05	4.23e-05	5.39e-04
1.209e+05	4.32e-05	5.42e-04
1.210e+05	4.41e-05	5.46e-04
1.211e+05	4.50e-05	5.49e-04
1.212e+05	4.60e-05	5.52e-04
1.213e+05	4.71e-05	5.56e-04
1.214e+05	4.82e-05	5.61e-04
1.215e+05	4.93e-05	5.65e-04
1.216e+05	5.03e-05	5.70e-04
1.217e+05	5.14e-05	5.75e-04
1.218e+05	5.24e-05	5.80e-04
1.219e+05	5.35e-05	5.87e-04
1.220e+05	5.47e-05	5.93e-04
1.221e+05	5.59e-05	6.00e-04
1.222e+05	5.70e-05	6.06e-04
1.223e+05	5.87e-05	6.13e-04
1.224e+05	6.06e-05	6.19e-04
1.225e+05	6.25e-05	6.25e-04
1.226e+05	6.45e-05	6.31e-04
1.227e+05	6.60e-05	6.37e-04
1.228e+05	6.75e-05	6.43e-04
1.229e+05	6.90e-05	6.48e-04
1.230e+05	7.13e-05	6.53e-04
1.231e+05	7.43e-05	6.58e-04
1.232e+05	7.75e-05	6.65e-04
1.233e+05	8.02e-05	6.75e-04
1.234e+05	8.28e-05	6.84e-04
1.235e+05	8.55e-05	6.94e-04
1.236e+05	8.82e-05	7.04e-04
1.237e+05	9.18e-05	7.11e-04
1.238e+05	9.56e-05	7.18e-04
1.239e+05	9.95e-05	7.26e-04
1.240e+05	1.03e-04	7.33e-04
1.241e+05	1.07e-04	7.46e-04
1.242e+05	1.10e-04	7.59e-04
1.243e+05	1.14e-04	7.73e-04
1.244e+05	1.18e-04	7.86e-04
1.245e+05	1.22e-04	8.02e-04
1.246e+05	1.29e-04	8.18e-04
1.247e+05	1.37e-04	8.34e-04
1.248e+05	1.46e-04	8.50e-04
1.249e+05	1.53e-04	8.66e-04
1.250e+05	1.60e-04	8.84e-04
1.251e+05	1.67e-04	9.04e-04
1.252e+05	1.75e-04	9.23e-04
1.253e+05	1.87e-04	9.44e-04
1.254e+05	1.99e-04	9.66e-04
1.255e+05	2.13e-04	9.88e-04
1.256e+05	2.28e-04	1.01e-03
1.257e+05	2.45e-04	1.04e-03
1.258e+05	2.64e-04	1.06e-03
1.259e+05	2.84e-04	1.09e-03
1.260e+05	3.06e-04	1.12e-03
1.261e+05	3.24e-04	1.15e-03
1.262e+05	3.42e-04	1.18e-03
1.263e+05	3.64e-04	1.21e-03
1.264e+05	4.07e-04	1.25e-03
1.265e+05	4.55e-04	1.30e-03
1.266e+05	5.09e-04	1.34e-03
1.267e+05	5.66e-04	1.39e-03
1.268e+05	6.24e-04	1.43e-03
1.269e+05	6.98e-04	1.47e-03
1.270e+05	7.85e-04	1.51e-03
1.271e+05	8.83e-04	1.54e-03
1.272e+05	9.94e-04	1.57e-03
1.273e+05	1.11e-03	1.59e-03
1.274e+05	1.22e-03	1.62e-03
1.275e+05	1.36e-03	1.59e-03
1.276e+05	1.57e-03	1.55e-03
1.277e+05	1.80e-03	1.43e-03
1.278e+05	2.07e-03	1.30e-03
1.279e+05	2.32e-03	9.88e-04
1.280e+05	2.51e-03	6.08e-04
1.281e+05	2.60e-03	2.34e-04
1.282e+05	2.53e-03	-1.90e-04
1.283e+05	2.46e-03	-5.68e-04
1.284e+05	2.40e-03	-8.18e-04
1.285e+05	2.33e-03	-9.93e-04
1.286e+05	2.11e-03	-1.06e-03
1.287e+05	1.87e-03	-1.09e-03
1.288e+05	1.62e-03	-1.13e-03
1.289e+05	1.39e-03	-1.10e-03
1.290e+05	1.18e-03	-1.07e-03
1.291e+05	1.01e-03	-1.04e-03
1.292e+05	8.83e-04	-9.84e-04
1.293e+05	7.69e-04	-9.23e-04
1.294e+05	6.70e-04	-8.78e-04
1.295e+05	6.03e-04	-8.33e-04
1.296e+05	5.51e-04	-7.90e-04
1.297e+05	5.03e-04	-7.47e-04
1.298e+05	4.51e-04	-7.09e-04
1.299e+05	4.03e-04	-6.73e-04
1.300e+05	3.58e-04	-6.36e-04
1.301e+05	3.22e-04	-5.98e-04
1.302e+05	2.92e-04	-5.65e-04
1.303e+05	2.66e-04	-5.33e-04
1.304e+05	2.42e-04	-5.05e-04
1.305e+05	2.29e-04	-4.77e-04
1.306e+05	2.16e-04	-4.49e-04
1.307e+05	2.05e-04	-4.27e-04
1.308e+05	1.87e-04	-4.06e-04
1.309e+05	1.72e-04	-3.86e-04
1.310e+05	1.61e-04	-3.67e-04
1.311e+05	1.50e-04	-3.48e-04
1.312e+05	1.40e-04	-3.30e-04
1.313e+05	1.30e-04	-3.12e-04
1.314e+05	1.21e-04	-2.96e-04
1.315e+05	1.15e-04	-2.79e-04
1.316e+05	1.10e-04	-2.62e-04
1.317e+05	1.05e-04	-2.47e-04
1.318e+05	1.01e-04	-2.33e-04
1.319e+05	9.59e-05	-2.18e-04
1.320e+05	9.12e-05	-2.05e-04
1.321e+05	8.65e-05	-1.92e-04
1.322e+05	8.01e-05	-1.79e-04
1.323e+05	7.52e-05	-1.66e-04
1.324e+05	7.15e-05	-1.55e-04
1.325e+05	6.87e-05	-1.45e-04
1.326e+05	6.72e-05	-1.36e-04
1.327e+05	6.61e-05	-1.27e-04
1.328e+05	6.36e-05	-1.18e-04
1.329e+05	6.06e-05	-1.09e-04
1.330e+05	5.75e-05	-1.00e-04
1.331e+05	5.48e-05	-9.25e-05
1.332e+05	5.27e-05	-8.53e-05
1.333e+05	5.11e-05	-7.81e-05
1.334e+05	4.97e-05	-7.10e-05
1.335e+05	4.84e-05	-6.39e-05
1.336e+05	4.74e-05	-5.61e-05
1.337e+05	4.61e-05	-4.85e-05
1.338e+05	4.43e-05	-4.12e-05
1.339e+05	4.47e-05	-3.46e-05
1.340e+05	4.41e-05	-2.84e-05
1.341e+05	4.24e-05	-2.27e-05
1.342e+05	4.24e-05	-1.51e-05
1.343e+05	4.21e-05	-8.24e-06
1.344e+05	4.08e-05	-1.40e-06
1.345e+05	3.72e-05	6.17e-06
1.346e+05	3.50e-05	1.10e-05
1.347e+05	3.31e-05	1.58e-05
1.348e+05	3.10e-05	1.93e-05
1.349e+05	2.99e-05	2.28e-05
1.350e+05	2.98e-05	2.61e-05
1.351e+05	2.94e-05	3.06e-05
1.352e+05	2.90e-05	3.54e-05
1.353e+05	2.88e-05	3.92e-05
1.354e+05	2.83e-05	4.27e-05
1.355e+05	2.76e-05	4.64e-05
1.356e+05	2.68e-05	5.01e-05
1.357e+05	2.60e-05	5.38e-05
1.358e+05	2.53e-05	5.77e-05
1.359e+05	2.47e-05	6.12e-05
1.360e+05	2.39e-05	6.44e-05
1.361e+05	2.33e-05	6.75e-05
1.362e+05	2.26e-05	7.06e-05
1.363e+05	2.16e-05	7.40e-05
1.364e+05	2.06e-05	7.73e-05
1.365e+05	2.06e-05	8.02e-05
1.366e+05	2.06e-05	8.34e-05
1.367e+05	2.04e-05	8.63e-05
1.368e+05	2.01e-05	8.89e-05
1.369e+05	1.98e-05	9.17e-05
1.370e+05	1.94e-05	9.43e-05
1.371e+05	1.89e-05	9.66e-05
1.372e+05	1.85e-05	9.89e-05
1.373e+05	1.81e-05	1.01e-04
1.374e+05	1.77e-05	1.04e-04
1.375e+05	1.75e-05	1.06e-04
1.376e+05	1.74e-05	1.09e-04
1.377e+05	1.72e-05	1.11e-04
1.378e+05	1.71e-05	1.14e-04
1.379e+05	1.68e-05	1.16e-04
1.380e+05	1.64e-05	1.18e-04
1.381e+05	1.60e-05	1.20e-04
1.382e+05	1.57e-05	1.22e-04
1.383e+05	1.55e-05	1.23e-04
1.384e+05	1.53e-05	1.25e-04
1.385e+05	1.52e-05	1.27e-04
1.386e+05	1.50e-05	1.29e-04
1.387e+05	1.48e-05	1.31e-04
1.388e+05	1.45e-05	1.32e-04
1.389e+05	1.43e-05	1.34e-04
1.390e+05	1.41e-05	1.36e-04
1.391e+05	1.39e-05	1.38e-04
1.392e+05	1.37e-05	1.40e-04
1.393e+05	1.35e-05	1.41e-04
1.394e+05	1.33e-05	1.43e-04
1.395e+05	1.31e-05	1.45e-04
1.396e+05	1.31e-05	1.46e-04
1.397e+05	1.30e-05	1.48e-04
1.398e+05	1.29e-05	1.49e-04
1.399e+05	1.28e-05	1.51e-04
1.400e+05	1.27e-05	1.53e-04
